,CustomerID,Amount,Frequency,Recency
0,12346.0,0.0,2,325
1,12347.0,4310.0,182,1
2,12348.0,1797.24,31,74
3,12349.0,1757.55,73,18
4,12350.0,334.4,17,309
5,12352.0,1545.41,95,35
6,12353.0,89.0,4,203
7,12354.0,1079.4,58,231
8,12355.0,459.4,13,213
9,12356.0,2811.43,59,22
10,12357.0,6207.67,131,32
11,12358.0,1168.06,19,1
12,12359.0,6245.53,254,7
13,12360.0,2662.06,129,51
14,12361.0,189.9,10,286
15,12362.0,5154.58,274,2
16,12363.0,552.0,23,109
17,12364.0,1313.1,85,7
18,12365.0,320.69,23,290
19,12367.0,168.9,11,3
20,12370.0,3545.69,167,50
21,12371.0,1887.96,63,44
22,12372.0,1298.04,52,71
23,12373.0,364.6,14,310
24,12374.0,742.9300000000001,33,24
25,12375.0,455.42,18,2
26,12377.0,1628.12,77,314
27,12378.0,4008.62,219,129
28,12379.0,850.29,41,81
29,12380.0,2720.56,105,21
30,12381.0,1803.96,91,4
31,12383.0,1839.31,100,184
32,12384.0,566.16,30,28
33,12386.0,401.9,10,337
34,12388.0,2780.66,100,15
35,12390.0,549.84,32,79
36,12391.0,460.89,100,21
37,12393.0,1582.6000000000001,64,71
38,12394.0,1272.48,27,63
39,12395.0,2998.28,159,15
40,12397.0,2409.9,126,35
41,12398.0,1635.6599999999999,85,45
42,12399.0,1108.65,59,118
43,12401.0,84.3,5,302
44,12402.0,225.6,11,322
45,12403.0,409.7,6,49
46,12405.0,1710.39,54,148
47,12406.0,3280.75,108,21
48,12407.0,1708.1200000000001,77,49
49,12408.0,2842.57,113,32
50,12409.0,11056.93,114,78
51,12410.0,681.0799999999999,28,300
52,12412.0,1226.88,61,74
53,12413.0,694.15,40,66
54,12414.0,562.41,18,216
55,12415.0,123725.45,778,23
56,12417.0,3578.8,198,2
57,12418.0,668.58,34,112
58,12420.0,600.39,29,63
59,12421.0,806.27,46,15
60,12422.0,803.5600000000001,39,95
61,12423.0,1849.11,126,0
62,12424.0,1760.96,30,162
63,12425.0,777.2,36,77
64,12426.0,582.73,30,194
65,12427.0,708.37,35,11
66,12428.0,7877.2,300,25
67,12429.0,3750.4,97,8
68,12430.0,256.4,11,42
69,12431.0,6416.39,240,35
70,12432.0,5059.32,108,42
71,12433.0,13375.87,420,0
72,12434.0,765.19,54,84
73,12435.0,7829.89,36,79
74,12436.0,509.01,16,99
75,12437.0,4896.66,201,1
76,12438.0,2906.85,98,13
77,12441.0,173.55,11,366
78,12442.0,172.06,12,2
79,12444.0,5005.46,177,20
80,12445.0,133.4,4,21
81,12446.0,1002.3100000000001,58,57
82,12447.0,476.49,26,242
83,12448.0,449.45,22,43
84,12449.0,4067.29,191,21
85,12450.0,197.88,8,155
86,12451.0,8933.52,355,10
87,12452.0,428.57,23,16
88,12453.0,707.09,43,133
89,12454.0,5.684341886080802e-14,30,52
90,12455.0,2466.86,90,72
91,12456.0,3153.89,129,43
92,12457.0,1917.78,68,57
93,12458.0,947.4,38,70
94,12461.0,826.88,35,93
95,12462.0,1124.01,72,1
96,12463.0,1303.63,88,45
97,12464.0,1212.05,29,9
98,12465.0,733.89,51,7
99,12468.0,724.0400000000001,40,142
100,12471.0,18740.92,531,1
101,12472.0,6229.48,391,30
102,12473.0,2848.23,179,28
103,12474.0,7116.47,457,16
104,12475.0,723.38,36,53
105,12476.0,6546.58,264,0
106,12477.0,13117.01,308,22
107,12478.0,680.99,36,3
108,12479.0,477.3,35,3
109,12480.0,3281.63,154,27
110,12481.0,5590.86,218,22
111,12483.0,2327.13,81,16
112,12484.0,4495.27,350,32
113,12488.0,1298.66,55,9
114,12489.0,334.93,15,335
115,12490.0,5417.93,245,4
116,12491.0,460.40000000000003,26,38
117,12492.0,263.21000000000004,20,62
118,12493.0,416.79,23,165
119,12494.0,1139.3500000000001,84,9
120,12497.0,1043.1,14,81
121,12498.0,403.70000000000005,23,20
122,12500.0,4206.27,65,22
123,12501.0,2089.68,160,314
124,12502.0,3723.87,147,95
125,12503.0,-1126.0,1,337
126,12504.0,114.0,15,17
127,12505.0,-4.5,1,300
128,12506.0,73.5,23,232
129,12507.0,1258.06,23,133
130,12508.0,398.27,69,25
131,12509.0,176.5,7,283
132,12510.0,982.5699999999999,33,142
133,12512.0,138.03,34,65
134,12513.0,586.79,36,84
135,12514.0,1017.68,51,266
136,12515.0,383.7,16,352
137,12516.0,1312.06,26,77
138,12517.0,2464.89,286,27
139,12518.0,2056.89,124,0
140,12519.0,340.84,18,63
141,12520.0,2582.51,155,78
142,12521.0,599.68,38,142
143,12522.0,192.72,12,38
144,12523.0,1745.57,110,1
145,12524.0,4485.72,144,8
146,12526.0,1316.66,71,0
147,12527.0,348.71000000000004,18,81
148,12528.0,1922.28,95,8
149,12530.0,1623.63,68,59
150,12531.0,125.22,17,14
151,12532.0,349.83000000000004,16,29
152,12534.0,1089.18,63,130
153,12535.0,716.35,34,91
154,12536.0,4106.82,273,7
155,12538.0,363.95,21,28
156,12539.0,3852.5,274,21
157,12540.0,13309.039999999999,481,19
158,12541.0,981.18,52,29
159,12544.0,355.7,20,29
160,12545.0,1000.39,50,74
161,12546.0,1141.5,70,46
162,12547.0,207.79999999999998,8,197
163,12548.0,95.19999999999999,5,165
164,12550.0,964.83,57,78
165,12551.0,168.0,10,357
166,12552.0,437.82,20,38
167,12553.0,3652.25,196,7
168,12556.0,603.71,121,49
169,12557.0,11990.960000000001,33,15
170,12558.0,1.0658141036401503e-14,22,1
171,12559.0,536.21,22,310
172,12560.0,2101.39,111,4
173,12561.0,238.85,16,302
174,12562.0,3781.7400000000002,168,7
175,12564.0,456.9,21,260
176,12565.0,131.17,10,281
177,12566.0,346.7,20,72
178,12567.0,9114.94,463,22
179,12569.0,4064.9900000000002,191,1
180,12571.0,519.61,34,39
181,12572.0,1004.72,62,8
182,12573.0,160.54000000000002,28,226
183,12574.0,218.45,11,315
184,12576.0,1306.98,89,35
185,12577.0,595.4,148,34
186,12578.0,2753.36,120,20
187,12579.0,410.72,31,72
188,12580.0,415.7,24,246
189,12581.0,197.71,15,39
190,12582.0,511.36,22,238
191,12583.0,7187.34,251,2
192,12584.0,1893.95,126,3
193,12585.0,1982.81,97,233
194,12586.0,179.94000000000003,12,16
195,12587.0,144.0,4,7
196,12588.0,214.89999999999998,10,38
197,12589.0,646.68,35,28
198,12590.0,9861.38,70,189
199,12591.0,452.84999999999997,26,316
200,12592.0,437.6,18,91
201,12593.0,418.09999999999997,21,108
202,12594.0,3320.2200000000003,119,37
203,12596.0,618.27,27,50
204,12597.0,3683.13,214,18
205,12598.0,3002.68,133,9
206,12599.0,1032.58,62,28
207,12600.0,2581.04,65,28
208,12601.0,569.5600000000001,29,189
209,12602.0,153.12,12,58
210,12603.0,739.1999999999999,3,21
211,12604.0,254.18,16,78
212,12605.0,-7.5,3,364
213,12607.0,3.552713678800501e-15,202,57
214,12609.0,1126.85,60,77
215,12610.0,2057.99,111,22
216,12611.0,1193.32,65,51
217,12612.0,643.59,21,57
218,12613.0,3218.98,163,30
219,12614.0,315.6,20,277
220,12615.0,2291.19,105,1
221,12616.0,657.25,36,84
222,12617.0,355.53,42,28
223,12618.0,177.31,11,21
224,12619.0,3214.81,95,15
225,12620.0,1339.41,92,14
226,12621.0,13612.07,474,1
227,12622.0,180.1,11,231
228,12623.0,305.1,18,275
229,12624.0,641.13,38,105
230,12625.0,2614.32,91,211
231,12626.0,6388.35,307,22
232,12627.0,4478.53,230,10
233,12628.0,769.61,43,3
234,12630.0,1270.88,64,9
235,12631.0,640.5,31,56
236,12633.0,2140.63,103,58
237,12635.0,1689.18,101,89
238,12637.0,5953.25,394,66
239,12638.0,671.69,39,32
240,12639.0,486.1,22,238
241,12640.0,1174.58,53,23
242,12641.0,185.9,10,114
243,12642.0,1013.26,47,24
244,12643.0,3344.64,24,127
245,12644.0,477.91,31,129
246,12645.0,1755.38,74,33
247,12646.0,1346.97,45,4
248,12647.0,3669.92,128,21
249,12648.0,318.05,21,154
250,12649.0,603.71,33,106
251,12650.0,314.44,20,2
252,12651.0,114.0,9,334
253,12652.0,914.53,51,321
254,12653.0,2209.85,43,148
255,12654.0,601.98,38,10
256,12656.0,3982.72,130,16
257,12657.0,1152.06,56,10
258,12658.0,686.05,36,18
259,12659.0,91.68,5,29
260,12660.0,245.1,13,10
261,12662.0,3817.08,232,0
262,12664.0,4863.88,38,7
263,12665.0,61.75,4,324
264,12666.0,-227.44,2,358
265,12667.0,620.13,33,57
266,12668.0,3743.18,168,6
267,12669.0,1607.73,102,150
268,12670.0,2986.15,94,9
269,12672.0,225.89999999999998,10,329
270,12673.0,610.52,42,4
271,12674.0,1919.31,91,11
272,12676.0,1331.39,45,24
273,12678.0,17588.26,167,41
274,12679.0,1058.67,56,51
275,12680.0,862.81,52,0
276,12681.0,13677.59,646,14
277,12682.0,12288.22,525,3
278,12683.0,8221.09,362,3
279,12684.0,2283.63,105,7
280,12685.0,2863.08,157,27
281,12686.0,89.14,7,371
282,12688.0,4873.8099999999995,171,113
283,12689.0,1247.61,72,25
284,12690.0,389.01,16,205
285,12691.0,1035.8,32,27
286,12693.0,830.96,41,120
287,12694.0,869.67,37,69
288,12695.0,582.1,27,6
289,12697.0,939.02,43,20
290,12700.0,4867.99,270,7
291,12701.0,797.71,53,79
292,12702.0,219.0,12,19
293,12703.0,274.7,22,63
294,12704.0,2220.84,90,6
295,12705.0,6814.24,348,14
296,12707.0,603.42,33,291
297,12708.0,2616.32,174,29
298,12709.0,9294.1,257,2
299,12710.0,1130.57,79,96
300,12712.0,4241.63,142,22
301,12713.0,848.55,38,0
302,12714.0,4708.86,259,8
303,12715.0,353.86,21,105
304,12716.0,1053.49,69,3
305,12717.0,980.98,56,150
306,12718.0,238.25,19,70
307,12719.0,608.1,42,4
308,12720.0,5713.28,359,2
309,12721.0,2628.98,164,31
310,12722.0,904.33,57,84
311,12723.0,725.07,69,3
312,12724.0,1031.41,53,4
313,12725.0,427.8,24,370
314,12726.0,2609.1,124,27
315,12727.0,3947.7,141,10
316,12728.0,836.33,46,70
317,12729.0,453.01,26,113
318,12731.0,18793.41,277,23
319,12732.0,236.26000000000002,12,179
320,12733.0,383.95,22,233
321,12734.0,110.39999999999999,4,352
322,12735.0,779.5699999999999,43,314
323,12736.0,234.0,4,332
324,12738.0,155.35,11,371
325,12739.0,1013.04,38,77
326,12740.0,427.6,27,63
327,12743.0,546.43,134,133
328,12744.0,9120.39,229,51
329,12747.0,4196.01,103,1
330,12748.0,29072.1,4642,0
331,12749.0,3868.2,231,3
332,12750.0,275.88,15,128
333,12752.0,4366.78,53,80
334,12753.0,21024.01,230,3
335,12754.0,2949.12,65,235
336,12755.0,2203.2,6,249
337,12756.0,112.07999999999998,4,86
338,12757.0,4227.7,377,15
339,12758.0,2791.59,97,116
340,12759.0,1531.44,95,51
341,12762.0,1898.52,69,7
342,12763.0,494.08,18,137
343,12764.0,1693.88,45,316
344,12766.0,6989.63,310,3
345,12769.0,1143.6,32,238
346,12770.0,1351.45,12,210
347,12772.0,892.47,55,59
348,12775.0,1351.24,67,16
349,12778.0,804.23,51,19
350,12779.0,3868.7,159,20
351,12781.0,707.72,30,20
352,12782.0,2273.32,107,4
353,12783.0,1603.87,86,1
354,12784.0,574.42,59,8
355,12785.0,305.71,15,2
356,12787.0,463.66,20,9
357,12789.0,91.85,4,64
358,12790.0,324.92,21,191
359,12791.0,192.60000000000002,2,373
360,12792.0,400.53999999999996,25,256
361,12793.0,545.48,24,334
362,12794.0,860.41,45,52
363,12795.0,430.48,14,18
364,12797.0,194.18,17,359
365,12798.0,6977.04,8,9
366,12802.0,412.58,26,183
367,12808.0,483.65000000000003,28,36
368,12809.0,484.36,26,167
369,12811.0,514.85,31,260
370,12812.0,229.64000000000001,15,44
371,12814.0,125.92,2,101
372,12815.0,1063.46,47,147
373,12816.0,572.2,29,95
374,12817.0,166.04,4,280
375,12818.0,1517.88,16,177
376,12820.0,942.34,59,2
377,12821.0,92.72,6,213
378,12822.0,918.98,47,70
379,12823.0,1759.5,5,74
380,12824.0,397.12,25,59
381,12826.0,1468.1200000000001,94,2
382,12827.0,430.15000000000003,25,5
383,12828.0,1018.71,56,2
384,12829.0,253.05,12,321
385,12830.0,6748.4,39,37
386,12831.0,215.05,9,261
387,12832.0,383.03,27,31
388,12833.0,417.38,24,144
389,12834.0,312.38,18,282
390,12836.0,2612.86,175,58
391,12837.0,134.1,12,172
392,12838.0,683.13,123,33
393,12839.0,5583.62,316,2
394,12840.0,2714.27,116,143
395,12841.0,3876.4,439,4
396,12842.0,1118.99,34,69
397,12843.0,1680.76,108,65
398,12844.0,325.96000000000004,52,28
399,12845.0,354.09,27,266
400,12847.0,871.54,91,21
401,12849.0,1050.8899999999999,51,30
402,12851.0,135.18,50,96
403,12852.0,299.75,20,289
404,12853.0,1881.7,84,107
405,12854.0,1289.15,115,78
406,12855.0,38.1,3,372
407,12856.0,2162.68,317,7
408,12857.0,1106.4,46,210
409,12863.0,504.2,6,51
410,12864.0,147.12,3,137
411,12865.0,1548.07,96,25
412,12866.0,559.12,26,282
413,12867.0,3986.22,551,25
414,12868.0,1607.0600000000002,107,185
415,12870.0,-14.899999999999999,2,365
416,12871.0,380.64,11,83
417,12872.0,599.97,66,326
418,12873.0,374.0,4,281
419,12875.0,343.2300000000001,2,142
420,12876.0,2218.02,85,57
421,12877.0,1535.77,154,3
422,12878.0,841.64,49,17
423,12879.0,552.5699999999999,12,44
424,12881.0,298.0,7,275
425,12882.0,1463.04,13,8
426,12883.0,703.47,42,24
427,12884.0,309.05,7,87
428,12885.0,1158.27,72,62
429,12886.0,1351.09,86,67
430,12888.0,313.77,7,213
431,12890.0,380.46999999999997,82,23
432,12891.0,331.0,3,185
433,12893.0,188.14,34,30
434,12895.0,347.3,24,41
435,12897.0,216.5,4,204
436,12901.0,16293.1,125,8
437,12902.0,138.68,10,264
438,12904.0,509.58,72,17
439,12906.0,2919.81,63,11
440,12908.0,246.0,4,58
441,12909.0,2128.83,96,39
442,12910.0,3075.04,75,22
443,12912.0,1662.3,24,2
444,12913.0,2483.63,50,4
445,12915.0,363.65,22,148
446,12916.0,2982.35,109,138
447,12917.0,594.0,2,127
448,12919.0,1301.44,52,7
449,12920.0,164.23,28,16
450,12921.0,16389.74,741,3
451,12922.0,405.38,28,160
452,12923.0,176.97,29,63
453,12924.0,929.95,31,87
454,12925.0,694.05,45,4
455,12928.0,2062.7000000000003,84,34
456,12929.0,105.1,9,121
457,12930.0,409.9,27,77
458,12931.0,33462.81,102,21
459,12933.0,606.28,107,23
460,12935.0,2156.45,130,1
461,12936.0,1012.9,63,16
462,12937.0,1504.27,120,14
463,12938.0,114.14,9,25
464,12939.0,11581.8,47,63
465,12940.0,876.29,103,45
466,12942.0,683.9,75,130
467,12943.0,-3.75,1,300
468,12944.0,604.51,30,35
469,12945.0,462.95,23,287
470,12947.0,1407.29,103,143
471,12948.0,2053.7,118,15
472,12949.0,4143.02,219,30
473,12950.0,1843.0,23,1
474,12951.0,1042.07,65,8
475,12952.0,1382.8400000000001,80,5
476,12953.0,329.85,17,9
477,12955.0,4734.26,183,0
478,12956.0,108.07,19,305
479,12957.0,3979.04,244,3
480,12962.0,266.39,16,6
481,12963.0,1841.03,96,7
482,12965.0,771.91,109,88
483,12966.0,160.18,10,9
484,12967.0,1194.75,33,2
485,12968.0,135.95,5,111
486,12970.0,452.24,151,6
487,12971.0,10930.26,308,3
488,12974.0,144.8,8,197
489,12976.0,738.6,22,211
490,12977.0,39.239999999999995,9,155
491,12980.0,7092.06,24,155
492,12981.0,372.21999999999997,20,29
493,12982.0,377.2,34,239
494,12984.0,97.5,4,18
495,12985.0,1215.6200000000001,78,0
496,12987.0,545.0,30,73
497,12988.0,535.32,92,291
498,12989.0,6854.51,68,2
499,12990.0,409.5,13,30
500,12991.0,503.76,31,22
501,12993.0,414.76,27,22
502,12994.0,902.22,73,3
503,12995.0,200.72,5,77
504,12997.0,1197.94,67,21
505,12999.0,455.88,28,195
506,13000.0,534.85,31,106
507,13001.0,9797.92,342,3
508,13002.0,120.94999999999999,7,317
509,13003.0,149.05,6,105
510,13004.0,5613.43,409,11
511,13005.0,468.95,29,173
512,13006.0,81.57,4,55
513,13008.0,178.46999999999997,15,322
514,13011.0,50.550000000000004,3,371
515,13012.0,1311.6200000000001,107,8
516,13013.0,4786.99,222,0
517,13014.0,3365.43,124,2
518,13015.0,3346.28,176,52
519,13016.0,789.89,47,72
520,13017.0,204.0,1,6
521,13018.0,7272.75,459,15
522,13021.0,2584.4,134,3
523,13023.0,689.9,40,63
524,13026.0,936.15,43,0
525,13027.0,6912.0,26,113
526,13028.0,659.68,47,22
527,13029.0,1247.5,10,30
528,13030.0,799.48,99,10
529,13032.0,996.52,75,38
530,13033.0,190.55,11,356
531,13034.0,642.77,37,54
532,13035.0,886.63,30,57
533,13037.0,881.07,48,137
534,13038.0,908.46,28,79
535,13040.0,676.99,43,8
536,13043.0,471.57,14,253
537,13044.0,560.47,33,290
538,13045.0,305.28000000000003,18,98
539,13046.0,629.31,35,30
540,13047.0,3079.1,196,31
541,13048.0,1805.91,137,13
542,13049.0,656.6800000000001,14,63
543,13050.0,5684.61,422,8
544,13052.0,348.15000000000003,18,211
545,13055.0,1201.96,78,63
546,13058.0,271.40000000000003,8,24
547,13059.0,183.4,8,249
548,13060.0,307.53,15,253
549,13061.0,248.61,10,71
550,13062.0,346.98,11,190
551,13064.0,1119.49,69,12
552,13065.0,205.86,14,372
553,13066.0,430.9,49,23
554,13067.0,115.46000000000001,15,81
555,13068.0,344.0,2,9
556,13069.0,3717.82,470,0
557,13070.0,228.8,9,191
558,13072.0,177.15,7,266
559,13075.0,919.61,22,129
560,13077.0,729.27,112,0
561,13078.0,12432.28,380,0
562,13079.0,220.10000000000002,6,3
563,13080.0,58.08,6,178
564,13081.0,27964.48,1061,0
565,13082.0,3595.48,75,125
566,13083.0,303.75,18,3
567,13085.0,272.38,29,157
568,13089.0,57385.88,1857,2
569,13090.0,8689.39,161,8
570,13091.0,319.82,24,20
571,13092.0,459.83,26,70
572,13093.0,7741.47,170,266
573,13094.0,1708.8600000000001,30,20
574,13095.0,74.39999999999999,6,70
575,13097.0,5893.32,437,32
576,13098.0,28658.88,605,0
577,13099.0,207.35999999999999,1,98
578,13101.0,101.19,8,233
579,13102.0,6336.29,310,0
580,13103.0,243.94,8,39
581,13104.0,1098.48,20,2
582,13106.0,59.5,2,128
583,13107.0,1524.07,60,43
584,13108.0,350.06,10,372
585,13109.0,766.84,50,2
586,13110.0,1452.8700000000001,146,30
587,13113.0,10510.0,280,0
588,13115.0,2205.63,132,8
589,13116.0,485.19,31,116
590,13117.0,984.91,76,21
591,13118.0,1125.0,82,19
592,13120.0,30.599999999999998,1,238
593,13121.0,254.73,53,268
594,13122.0,922.39,55,93
595,13124.0,3866.33,235,89
596,13126.0,2056.29,142,4
597,13127.0,259.17,15,77
598,13130.0,64.0,2,93
599,13131.0,1039.3,46,22
600,13132.0,77.3,3,261
601,13133.0,109.8,7,273
602,13134.0,1740.63,105,72
603,13135.0,3096.0,1,196
604,13136.0,2545.38,139,49
605,13137.0,3605.08,705,10
606,13138.0,962.39,63,21
607,13139.0,5055.79,174,15
608,13140.0,423.72,46,107
609,13141.0,2385.8,136,84
610,13142.0,307.09,23,18
611,13144.0,110.95,3,332
612,13145.0,614.77,7,39
613,13146.0,228.91,17,25
614,13147.0,712.8000000000001,4,9
615,13148.0,3348.48,347,28
616,13149.0,1676.06,86,13
617,13151.0,1250.3700000000001,75,202
618,13153.0,486.22,15,5
619,13154.0,-611.86,1,143
620,13155.0,971.76,85,32
621,13157.0,1721.57,89,48
622,13158.0,1201.06,79,94
623,13159.0,1379.75,122,8
624,13160.0,91.8,4,21
625,13161.0,112.75,8,312
626,13162.0,1644.99,82,121
627,13165.0,1021.48,42,45
628,13166.0,414.7,42,281
629,13167.0,791.33,65,18
630,13168.0,1310.14,133,35
631,13169.0,712.88,13,63
632,13170.0,116.00999999999999,32,26
633,13171.0,426.81,48,7
634,13173.0,353.65,43,3
635,13174.0,2817.03,314,15
636,13176.0,492.84,72,45
637,13177.0,282.45,17,64
638,13178.0,5725.47,265,25
639,13182.0,121.18,11,44
640,13183.0,3957.78,94,7
641,13184.0,1648.79,183,14
642,13185.0,71.4,1,267
643,13186.0,1539.69,84,39
644,13187.0,236.02,37,336
645,13188.0,114.60000000000001,2,10
646,13189.0,260.68,29,18
647,13192.0,911.94,63,94
648,13193.0,117.88,29,60
649,13194.0,60.7,3,135
650,13196.0,1797.78,110,10
651,13198.0,3384.09,229,9
652,13199.0,9803.96,120,3
653,13200.0,870.09,46,18
654,13203.0,869.46,57,9
655,13207.0,250.26000000000002,8,14
656,13208.0,1205.9,150,58
657,13209.0,5820.16,329,29
658,13210.0,353.48,22,93
659,13211.0,1197.42,56,9
660,13212.0,780.58,143,8
661,13213.0,1518.43,92,56
662,13216.0,333.74,5,267
663,13217.0,133.62,7,121
664,13218.0,62.63999999999999,5,126
665,13220.0,819.2900000000001,21,77
666,13221.0,847.41,66,239
667,13223.0,163.20000000000002,5,199
668,13224.0,2150.85,109,59
669,13225.0,6083.04,34,2
670,13226.0,108.21000000000001,16,272
671,13227.0,257.7,9,201
672,13228.0,358.0,2,80
673,13229.0,160.95,10,225
674,13230.0,2763.41,612,3
675,13232.0,1357.6,207,12
676,13233.0,605.12,43,73
677,13235.0,101.17000000000007,59,211
678,13236.0,727.27,39,24
679,13238.0,680.83,32,10
680,13239.0,329.56,22,261
681,13240.0,663.65,67,95
682,13242.0,270.40000000000003,13,111
683,13243.0,600.07,58,202
684,13244.0,121.74000000000001,27,92
685,13245.0,430.5,16,50
686,13246.0,1922.1,143,17
687,13247.0,501.12,25,17
688,13248.0,465.68,26,124
689,13249.0,711.41,23,91
690,13253.0,1030.4,36,156
691,13255.0,390.66,14,3
692,13256.0,0.0,1,13
693,13258.0,698.58,38,11
694,13259.0,292.32,87,61
695,13260.0,557.62,8,60
696,13261.0,944.1,9,268
697,13262.0,200.29,11,262
698,13263.0,7454.07,1677,0
699,13265.0,2107.66,91,52
700,13266.0,3717.67,202,10
701,13267.0,4404.44,224,2
702,13268.0,3167.64,447,17
703,13269.0,5315.92,320,0
704,13270.0,590.0,1,365
705,13271.0,178.26,101,36
706,13272.0,276.56,15,30
707,13273.0,138.98,16,112
708,13276.0,590.9300000000001,30,63
709,13277.0,258.4,8,15
710,13278.0,542.73,46,40
711,13279.0,126.30000000000001,11,63
712,13280.0,814.86,85,121
713,13282.0,1047.8400000000001,40,17
714,13283.0,93.66,7,59
715,13284.0,196.15,14,322
716,13285.0,2709.12,187,22
717,13291.0,361.11,42,155
718,13292.0,578.9399999999999,31,38
719,13294.0,873.74,54,189
720,13295.0,197.95000000000002,11,359
721,13296.0,87.4,5,136
722,13297.0,2089.85,59,7
723,13298.0,360.0,2,0
724,13299.0,142.5,5,267
725,13300.0,365.29,22,164
726,13301.0,618.09,81,103
727,13302.0,63.75,1,154
728,13304.0,300.42,21,350
729,13305.0,2000.86,81,3
730,13307.0,15.0,1,119
731,13308.0,1367.6100000000001,57,22
732,13309.0,1456.79,107,6
733,13310.0,1083.63,77,8
734,13311.0,598.57,26,3
735,13313.0,1555.32,78,21
736,13314.0,578.66,75,1
737,13316.0,5815.49,88,36
738,13317.0,2140.07,135,63
739,13318.0,640.76,20,0
740,13319.0,10664.34,500,4
741,13320.0,1491.7,110,69
742,13321.0,567.36,11,71
743,13322.0,199.48000000000002,25,16
744,13323.0,787.85,21,2
745,13324.0,7072.8,77,31
746,13325.0,675.3,12,81
